signal,ase,nli
0.00032604157967922444,3.8935959883271924e-08,2.539965578337836e-07
0.00032328960243332684,3.8810671500762835e-08,2.5663738970063416e-07
0.00032056029786110157,3.868604918692925e-08,2.592150965031528e-07
0.00031785348044782843,3.8562088265369447e-08,2.6173053215400274e-07
0.0003135289285938069,3.825657866895415e-08,2.6280980975086247e-07
0.0003092619645089757,3.795352646072731e-08,2.638102042108583e-07
0.00030505183394148404,3.765290581990574e-08,2.6473361787903275e-07
0.00030089491823866507,3.7354663747847124e-08,2.655793802376763e-07
0.00029679060358502453,3.7058775888620424e-08,2.6634930318006916e-07
0.00029233794142859257,3.6718602002252656e-08,2.66679964187382e-07
0.0002879479768595629,3.6381457550725745e-08,2.669369484542221e-07
0.00028361214976146395,3.604716554664646e-08,2.6711497757518526e-07
0.0002793300077411927,3.571569823235532e-08,2.672160224912377e-07
0.0002751010981412369,3.5387027934447644e-08,2.67242027104696e-07
0.00027080073484449853,3.504602748130486e-08,2.670723854909834e-07
0.00026655648813304753,3.470802907616204e-08,2.66831627051265e-07
0.00026236784002609887,3.437300219261816e-08,2.6652171719170824e-07
0.0002582345425613172,3.4040919009026404e-08,2.661448689436221e-07
0.0002541560656949719,3.371174904932286e-08,2.614654439818205e-07
0.0002496620851281002,3.3326892614798764e-08,2.5637462123444675e-07
0.0002452374451534969,3.294599171403744e-08,2.51371707297057e-07
0.00024088145821928156,3.2569002274310256e-08,2.4645560909853323e-07
0.0002365932638948692,3.219587714486923e-08,2.4162506216324533e-07
0.00023237200825962498,3.182656948678391e-08,2.36878815097855e-07
0.0002285622890434392,3.1502108186516113e-08,2.3256712751540412e-07
0.000224806097745002,3.118070391756505e-08,2.2832407613050137e-07
0.000221102858965854,3.0862324318115306e-08,2.2414877685692043e-07
0.000217452843537364,3.054694554207867e-08,2.2004120622172965e-07
0.00021385543850548544,3.023453513132712e-08,2.1600044607307348e-07
0.00021031003502759767,2.992506080151657e-08,2.1202558699612417e-07
0.0002068160295657078,2.9618490530807167e-08,2.0811572947528004e-07
0.00020337296643691016,2.9314795276310928e-08,2.0427012702379691e-07
0.00019998024296978957,2.9013943208478005e-08,2.004878892071301e-07
0.00019663726088668825,2.8715902658252063e-08,1.9676813450244633e-07
0.00019345511017282424,2.8434111784203578e-08,1.932215392834241e-07
0.00019031787351846423,2.8154939925487786e-08,1.8973163962455615e-07
0.00018722504200198214,2.7878360271640954e-08,1.862976767632374e-07
0.0001841774272708982,2.7604359539118464e-08,1.826448442334036e-07
0.00018117446114691388,2.733291057846149e-08,1.790566672572754e-07
0.00017821558095562404,2.706398641427885e-08,1.7553214050056907e-07
0.00017530022945437,2.6797560238677604e-08,1.7207027154106073e-07
0.0001724299457854783,2.6533647806428267e-08,1.6867212616155734e-07
0.0001696040784473137,2.6272220778100128e-08,1.6533661388497544e-07
0.00016682198464289616,2.601325102847069e-08,1.6206266146763085e-07
0.00016393345628712799,2.5733936520732894e-08,1.5870440977723306e-07
0.00016109242382472084,2.545743151834544e-08,1.5541143626206464e-07
0.0001582981501292298,2.5183701987762366e-08,1.5218255237201848e-07
0.00015555118743520137,2.4912727534955647e-08,1.4901781469359682e-07
0.00015285075169774615,2.464447403103655e-08,1.459159967203846e-07
0.00015019607170956907,2.4378907663860404e-08,1.4287589472060497e-07
0.00014758638856491303,2.411599490329377e-08,1.3989632701280814e-07
0.00014502252060510392,2.3855735346648558e-08,1.3697761189122985e-07
0.0001425036502780715,2.3598094506063597e-08,1.3411851699042515e-07
0.00014002897499358033,2.3343038231560797e-08,1.3131783499014228e-07
0.00013753718517234262,2.3080604119881075e-08,1.2851783029516243e-07
0.00013509013019285341,2.282086231996165e-08,1.2577626096817432e-07
0.00013268699549194725,2.2563776456674413e-08,1.2297825588293976e-07
0.00013032819356493638,2.2309323467742637e-08,1.202414572408165e-07
0.00012801287362678674,2.2057466969827343e-08,1.1756452182627633e-07
0.00012574020193474033,2.180817094150408e-08,1.1494613638015832e-07
0.00012350936089195543,2.1561399665483537e-08,1.1238501642405449e-07
0.00012132069573284248,2.1317142577520812e-08,1.0988094447963499e-07
0.00011917335908370939,2.107536340818651e-08,1.0743262212001583e-07
0.00011706652161566526,2.0836026252978904e-08,1.050387814285657e-07
0.00011518334672504159,2.0632089568305398e-08,1.0286247999917624e-07
0.00011333294103824388,2.0430100425712553e-08,1.007312156021037e-07
0.00011151469109743842,2.023003498180466e-08,9.864403026769508e-08
0.00010972805562054067,2.0031870308334748e-08,9.660003993341566e-08
0.00010797244251244405,1.9835583043655128e-08,9.459832516462222e-08
0.00010624727154859558,1.9641150076046143e-08,9.263798688229312e-08
0.000104551973718523,1.944854850073317e-08,9.0718145542672e-08
0.00010288652229769446,1.9257767505880983e-08,8.883839945971342e-08
0.00010125034488990306,1.9068784143245395e-08,8.699787853856992e-08
9.964288092512638e-05,1.888157571033239e-08,8.519573246860006e-08
9.807370911206352e-05,1.8698605164202886e-08,8.343974676923062e-08
9.653184721902578e-05,1.8517435835507363e-08,8.212795212953579e-08
9.501677683392408e-05,1.8338047959901606e-08,8.083895133192144e-08
9.352804138066668e-05,1.816042265236484e-08,7.957235592780316e-08
9.206514095009894e-05,1.79845407277774e-08,7.832774060142966e-08
9.062758585864885e-05,1.781038330273993e-08,7.710468873683306e-08
8.92148961709371e-05,1.763793176954983e-08,7.590279201167218e-08
8.782672450630834e-05,1.746717064755325e-08,7.472175487932006e-08
8.646260445418701e-05,1.729808180791121e-08,7.356118052415036e-08
8.512207918051352e-05,1.7130647424259626e-08,7.242068027810318e-08
8.393176597139634e-05,1.6993534852422717e-08,7.14079783660003e-08
8.276047637803411e-05,1.6857898288904868e-08,7.041146148142008e-08
8.16078713532298e-05,1.6723731561835688e-08,6.943084116772601e-08
8.047190075391047e-05,1.6591009125296236e-08,6.84643731917245e-08
7.935231250777349e-05,1.6459726524045502e-08,6.751184309380872e-08
7.824885856213393e-05,1.6329879756314996e-08,6.657303983420662e-08
7.716129471522308e-05,1.6201465278603317e-08,6.564775564945206e-08
7.608840120756464e-05,1.607445665410507e-08,6.473495278515863e-08
7.502998351553354e-05,1.5948852158823722e-08,6.383446574333344e-08
7.3985849680443e-05,1.5824650565264137e-08,6.29461312081973e-08
7.277013092473873e-05,1.5656129130778095e-08,6.191181461064046e-08
7.157388285472334e-05,1.5489302047166528e-08,6.089406340148397e-08
